   4   4   0   0
  0.1942092E+02  0.3888946E-09  0.3888946E-09  0.5931103E-09  0.1500000E-16
  1.000000000000000E-004
  CAR 
 unknown system                          
     10.26969651    -10.71174786  301      1.03840738      1.00000000
    -10.712  0.0000E+00  0.0000E+00
    -10.642  0.0000E+00  0.0000E+00
    -10.572  0.0000E+00  0.0000E+00
    -10.502  0.0000E+00  0.0000E+00
    -10.432  0.0000E+00  0.0000E+00
    -10.362  0.0000E+00  0.0000E+00
    -10.292  0.7367E-19  0.5152E-20
    -10.222  0.1824E-15  0.1277E-16
    -10.152  0.1676E-12  0.1174E-13
    -10.082  0.6055E-10  0.4247E-11
    -10.012  0.8808E-08  0.6202E-09
     -9.942  0.5358E-06  0.3809E-07
     -9.872  0.1440E-04  0.1045E-05
     -9.803  0.1822E-03  0.1379E-04
     -9.733  0.1136E-02  0.9322E-04
     -9.663  0.3561E-02  0.3422E-03
     -9.593  0.6017E-02  0.7630E-03
     -9.523  0.7382E-02  0.1279E-02
     -9.453  0.8651E-02  0.1884E-02
     -9.383  0.7677E-02  0.2421E-02
     -9.313  0.6369E-02  0.2867E-02
     -9.243  0.8886E-02  0.3488E-02
     -9.173  0.1022E-01  0.4203E-02
     -9.103  0.7867E-02  0.4753E-02
     -9.033  0.5390E-02  0.5130E-02
     -8.963  0.6440E-02  0.5581E-02
     -8.893  0.1125E-01  0.6367E-02
     -8.823  0.1194E-01  0.7202E-02
     -8.753  0.7650E-02  0.7737E-02
     -8.684  0.5635E-02  0.8131E-02
     -8.614  0.5648E-02  0.8526E-02
     -8.544  0.8137E-02  0.9096E-02
     -8.474  0.1259E-01  0.9976E-02
     -8.404  0.1352E-01  0.1092E-01
     -8.334  0.9551E-02  0.1159E-01
     -8.264  0.5258E-02  0.1196E-01
     -8.194  0.5268E-02  0.1233E-01
     -8.124  0.7579E-02  0.1286E-01
     -8.054  0.1223E-01  0.1371E-01
     -7.984  0.1610E-01  0.1484E-01
     -7.914  0.1501E-01  0.1589E-01
     -7.844  0.1109E-01  0.1666E-01
     -7.774  0.7758E-02  0.1721E-01
     -7.704  0.8009E-02  0.1777E-01
     -7.634  0.1361E-01  0.1872E-01
     -7.565  0.2082E-01  0.2017E-01
     -7.495  0.1688E-01  0.2135E-01
     -7.425  0.6285E-02  0.2179E-01
     -7.355  0.1794E-02  0.2192E-01
     -7.285  0.3043E-02  0.2213E-01
     -7.215  0.4831E-02  0.2247E-01
     -7.145  0.4769E-02  0.2280E-01
     -7.075  0.4935E-02  0.2315E-01
     -7.005  0.3832E-02  0.2342E-01
     -6.935  0.1398E-02  0.2351E-01
     -6.865  0.2132E-03  0.2353E-01
     -6.795  0.1430E-04  0.2353E-01
     -6.725  0.3380E-04  0.2353E-01
     -6.655  0.4185E-03  0.2356E-01
     -6.585  0.2160E-02  0.2371E-01
     -6.515  0.4969E-02  0.2406E-01
     -6.446  0.6342E-02  0.2450E-01
     -6.376  0.5920E-02  0.2492E-01
     -6.306  0.4955E-02  0.2526E-01
     -6.236  0.8978E-02  0.2589E-01
     -6.166  0.1875E-01  0.2720E-01
     -6.096  0.2284E-01  0.2880E-01
     -6.026  0.1613E-01  0.2993E-01
     -5.956  0.1010E-01  0.3063E-01
     -5.886  0.9966E-02  0.3133E-01
     -5.816  0.8655E-02  0.3194E-01
     -5.746  0.1041E-01  0.3266E-01
     -5.676  0.1524E-01  0.3373E-01
     -5.606  0.1376E-01  0.3469E-01
     -5.536  0.8224E-02  0.3527E-01
     -5.466  0.7868E-02  0.3582E-01
     -5.396  0.1164E-01  0.3663E-01
     -5.327  0.1468E-01  0.3766E-01
     -5.257  0.1878E-01  0.3897E-01
     -5.187  0.2750E-01  0.4090E-01
     -5.117  0.3043E-01  0.4302E-01
     -5.047  0.1954E-01  0.4439E-01
     -4.977  0.1036E-01  0.4511E-01
     -4.907  0.9750E-02  0.4580E-01
     -4.837  0.1022E-01  0.4651E-01
     -4.767  0.6041E-02  0.4693E-01
     -4.697  0.1603E-02  0.4705E-01
     -4.627  0.1782E-03  0.4706E-01
     -4.557  0.8060E-05  0.4706E-01
     -4.487  0.1458E-06  0.4706E-01
     -4.417  0.1040E-08  0.4706E-01
     -4.347  0.2900E-11  0.4706E-01
     -4.277  0.3136E-14  0.4706E-01
     -4.208  0.1326E-17  0.4706E-01
     -4.138  0.0000E+00  0.4706E-01
     -4.068  0.0000E+00  0.4706E-01
     -3.998  0.0000E+00  0.4706E-01
     -3.928  0.0000E+00  0.4706E-01
     -3.858  0.0000E+00  0.4706E-01
     -3.788  0.0000E+00  0.4706E-01
     -3.718  0.0000E+00  0.4706E-01
     -3.648  0.0000E+00  0.4706E-01
     -3.578  0.3021E-17  0.4706E-01
     -3.508  0.6490E-14  0.4706E-01
     -3.438  0.5100E-11  0.4706E-01
     -3.368  0.1593E-08  0.4706E-01
     -3.298  0.2008E-06  0.4706E-01
     -3.228  0.1039E-04  0.4706E-01
     -3.158  0.2249E-03  0.4708E-01
     -3.088  0.2086E-02  0.4722E-01
     -3.019  0.8649E-02  0.4783E-01
     -2.949  0.1772E-01  0.4907E-01
     -2.879  0.2311E-01  0.5068E-01
     -2.809  0.2741E-01  0.5260E-01
     -2.739  0.3258E-01  0.5488E-01
     -2.669  0.3590E-01  0.5739E-01
     -2.599  0.3364E-01  0.5974E-01
     -2.529  0.2398E-01  0.6142E-01
     -2.459  0.1660E-01  0.6258E-01
     -2.389  0.1766E-01  0.6381E-01
     -2.319  0.2275E-01  0.6541E-01
     -2.249  0.3121E-01  0.6759E-01
     -2.179  0.4476E-01  0.7072E-01
     -2.109  0.5977E-01  0.7490E-01
     -2.039  0.6318E-01  0.7932E-01
     -1.969  0.5233E-01  0.8298E-01
     -1.900  0.3840E-01  0.8566E-01
     -1.830  0.2898E-01  0.8769E-01
     -1.760  0.2848E-01  0.8968E-01
     -1.690  0.3314E-01  0.9200E-01
     -1.620  0.3145E-01  0.9420E-01
     -1.550  0.2240E-01  0.9577E-01
     -1.480  0.1886E-01  0.9709E-01
     -1.410  0.1626E-01  0.9822E-01
     -1.340  0.8989E-02  0.9885E-01
     -1.270  0.5366E-02  0.9923E-01
     -1.200  0.8642E-02  0.9983E-01
     -1.130  0.1266E-01  0.1007E+00
     -1.060  0.1485E-01  0.1018E+00
     -0.990  0.1475E-01  0.1028E+00
     -0.920  0.1366E-01  0.1037E+00
     -0.850  0.1637E-01  0.1049E+00
     -0.781  0.1791E-01  0.1061E+00
     -0.711  0.1609E-01  0.1073E+00
     -0.641  0.1585E-01  0.1084E+00
     -0.571  0.1717E-01  0.1096E+00
     -0.501  0.1434E-01  0.1106E+00
     -0.431  0.8655E-02  0.1112E+00
     -0.361  0.4052E-02  0.1115E+00
     -0.291  0.3138E-02  0.1117E+00
     -0.221  0.8381E-02  0.1123E+00
     -0.151  0.1322E-01  0.1132E+00
     -0.081  0.9135E-02  0.1138E+00
     -0.011  0.3828E-02  0.1141E+00
      0.059  0.4487E-02  0.1144E+00
      0.129  0.7735E-02  0.1150E+00
      0.199  0.1009E-01  0.1157E+00
      0.269  0.8393E-02  0.1162E+00
      0.338  0.3628E-02  0.1165E+00
      0.408  0.2016E-02  0.1166E+00
      0.478  0.3962E-02  0.1169E+00
      0.548  0.4807E-02  0.1173E+00
      0.618  0.3274E-02  0.1175E+00
      0.688  0.1669E-02  0.1176E+00
      0.758  0.5441E-03  0.1176E+00
      0.828  0.8284E-04  0.1176E+00
      0.898  0.5199E-05  0.1176E+00
      0.968  0.1296E-06  0.1176E+00
      1.038  0.1264E-08  0.1176E+00
      1.108  0.4782E-11  0.1176E+00
      1.178  0.6964E-14  0.1176E+00
      1.248  0.3684E-17  0.1176E+00
      1.318  0.0000E+00  0.1176E+00
      1.388  0.0000E+00  0.1176E+00
      1.457  0.0000E+00  0.1176E+00
      1.527  0.0000E+00  0.1176E+00
      1.597  0.0000E+00  0.1176E+00
      1.667  0.0000E+00  0.1176E+00
      1.737  0.0000E+00  0.1176E+00
      1.807  0.0000E+00  0.1176E+00
      1.877  0.0000E+00  0.1176E+00
      1.947  0.0000E+00  0.1176E+00
      2.017  0.0000E+00  0.1176E+00
      2.087  0.0000E+00  0.1176E+00
      2.157  0.0000E+00  0.1176E+00
      2.227  0.4862E-17  0.1176E+00
      2.297  0.9465E-14  0.1176E+00
      2.367  0.7056E-11  0.1176E+00
      2.437  0.2046E-08  0.1176E+00
      2.507  0.2335E-06  0.1176E+00
      2.577  0.1066E-04  0.1176E+00
      2.646  0.1990E-03  0.1177E+00
      2.716  0.1555E-02  0.1178E+00
      2.786  0.5269E-02  0.1181E+00
      2.856  0.8395E-02  0.1187E+00
      2.926  0.7961E-02  0.1193E+00
      2.996  0.6370E-02  0.1197E+00
      3.066  0.4729E-02  0.1201E+00
      3.136  0.5181E-02  0.1204E+00
      3.206  0.1189E-01  0.1213E+00
      3.276  0.2205E-01  0.1228E+00
      3.346  0.2424E-01  0.1245E+00
      3.416  0.1861E-01  0.1258E+00
      3.486  0.1439E-01  0.1268E+00
      3.556  0.1273E-01  0.1277E+00
      3.626  0.1024E-01  0.1284E+00
      3.696  0.8809E-02  0.1290E+00
      3.765  0.1106E-01  0.1298E+00
      3.835  0.1126E-01  0.1306E+00
      3.905  0.6520E-02  0.1310E+00
      3.975  0.3434E-02  0.1313E+00
      4.045  0.6318E-02  0.1317E+00
      4.115  0.1151E-01  0.1325E+00
      4.185  0.1533E-01  0.1336E+00
      4.255  0.1806E-01  0.1349E+00
      4.325  0.2364E-01  0.1365E+00
      4.395  0.3359E-01  0.1389E+00
      4.465  0.4027E-01  0.1417E+00
      4.535  0.4036E-01  0.1445E+00
      4.605  0.3970E-01  0.1473E+00
      4.675  0.4077E-01  0.1501E+00
      4.745  0.4140E-01  0.1530E+00
      4.815  0.4219E-01  0.1560E+00
      4.884  0.3925E-01  0.1587E+00
      4.954  0.3585E-01  0.1612E+00
      5.024  0.2971E-01  0.1633E+00
      5.094  0.2193E-01  0.1648E+00
      5.164  0.2073E-01  0.1663E+00
      5.234  0.2092E-01  0.1678E+00
      5.304  0.2165E-01  0.1693E+00
      5.374  0.2592E-01  0.1711E+00
      5.444  0.2960E-01  0.1732E+00
      5.514  0.3128E-01  0.1753E+00
      5.584  0.3290E-01  0.1776E+00
      5.654  0.3460E-01  0.1801E+00
      5.724  0.3665E-01  0.1826E+00
      5.794  0.3383E-01  0.1850E+00
      5.864  0.2924E-01  0.1870E+00
      5.934  0.2817E-01  0.1890E+00
      6.003  0.2675E-01  0.1909E+00
      6.073  0.2510E-01  0.1926E+00
      6.143  0.2469E-01  0.1944E+00
      6.213  0.2580E-01  0.1962E+00
      6.283  0.2515E-01  0.1979E+00
      6.353  0.2466E-01  0.1996E+00
      6.423  0.2725E-01  0.2015E+00
      6.493  0.2848E-01  0.2035E+00
      6.563  0.2470E-01  0.2053E+00
      6.633  0.1656E-01  0.2064E+00
      6.703  0.1283E-01  0.2073E+00
      6.773  0.2078E-01  0.2088E+00
      6.843  0.2941E-01  0.2108E+00
      6.913  0.2765E-01  0.2128E+00
      6.983  0.2132E-01  0.2143E+00
      7.053  0.1769E-01  0.2155E+00
      7.122  0.1797E-01  0.2168E+00
      7.192  0.1694E-01  0.2179E+00
      7.262  0.1235E-01  0.2188E+00
      7.332  0.1295E-01  0.2197E+00
      7.402  0.2081E-01  0.2212E+00
      7.472  0.2392E-01  0.2228E+00
      7.542  0.1600E-01  0.2240E+00
      7.612  0.1006E-01  0.2247E+00
      7.682  0.1222E-01  0.2255E+00
      7.752  0.1225E-01  0.2264E+00
      7.822  0.8209E-02  0.2269E+00
      7.892  0.4861E-02  0.2273E+00
      7.962  0.3874E-02  0.2276E+00
      8.032  0.8332E-02  0.2281E+00
      8.102  0.1290E-01  0.2290E+00
      8.172  0.9395E-02  0.2297E+00
      8.241  0.4618E-02  0.2300E+00
      8.311  0.4993E-02  0.2304E+00
      8.381  0.6008E-02  0.2308E+00
      8.451  0.5192E-02  0.2312E+00
      8.521  0.6060E-02  0.2316E+00
      8.591  0.7990E-02  0.2321E+00
      8.661  0.8863E-02  0.2328E+00
      8.731  0.7959E-02  0.2333E+00
      8.801  0.6630E-02  0.2338E+00
      8.871  0.4934E-02  0.2341E+00
      8.941  0.4092E-02  0.2344E+00
      9.011  0.4605E-02  0.2347E+00
      9.081  0.3110E-02  0.2349E+00
      9.151  0.1078E-02  0.2350E+00
      9.221  0.8987E-03  0.2351E+00
      9.291  0.1488E-02  0.2352E+00
      9.361  0.1132E-02  0.2353E+00
      9.430  0.3499E-03  0.2353E+00
      9.500  0.4350E-04  0.2353E+00
      9.570  0.2150E-05  0.2353E+00
      9.640  0.4179E-07  0.2353E+00
      9.710  0.3162E-09  0.2353E+00
      9.780  0.9243E-12  0.2353E+00
      9.850  0.1038E-14  0.2353E+00
      9.920  0.4420E-18  0.2353E+00
      9.990  0.0000E+00  0.2353E+00
     10.060  0.0000E+00  0.2353E+00
     10.130  0.0000E+00  0.2353E+00
     10.200  0.0000E+00  0.2353E+00
     10.270  0.0000E+00  0.2353E+00
